Time(s) 	 Filtered Altitude MSL(m) 	 Filtered Altitude AGL(m) 	 Filtered Velocity(m/s) 	 Filtered Acceleration(m/s/s) 	 Altitude MSL(m)  	 Altitude AGL(m) 	 Velocity(m/s) 	 Acceleration (m/s/s) 	 Chute Arm 	 Chute Release15.36	7.94	-150.83	0.52	0.03	158.76	-0.01	10.34	0.67	0	0
15.55	23.02	-135.75	81.09	433.21	158.78	0.01	0.14	-54.84	0	0
15.73	36.60	-122.17	73.42	-41.49	158.91	0.13	0.66	2.83	0	0
15.91	48.83	-109.94	67.56	-32.39	158.85	0.08	-0.30	-5.32	0	0
16.10	59.83	-98.94	59.47	-43.70	158.85	0.08	-0.00	1.64	0	0
16.29	69.73	-89.04	52.39	-37.48	158.84	0.07	-0.06	-0.31	0	0
16.47	78.64	-80.13	47.88	-24.21	158.76	-0.01	-0.43	-1.98	0	0
16.66	86.65	-72.12	43.06	-25.95	158.70	-0.08	-0.35	0.44	0	0
16.84	93.86	-64.91	38.76	-23.09	158.80	0.03	0.55	4.81	0	0
17.03	100.35	-58.43	34.87	-20.91	158.65	-0.13	-0.81	-7.33	0	0
17.22	106.18	-52.59	31.37	-18.82	158.75	-0.03	0.54	7.27	0	0
17.40	111.43	-47.34	28.24	-16.84	158.67	-0.11	-0.44	-5.23	0	0
17.59	116.16	-42.62	25.39	-15.34	158.63	-0.14	-0.17	1.45	0	0
17.77	120.41	-38.36	22.89	-13.44	158.81	0.04	0.95	6.00	0	0
17.96	124.24	-34.53	20.16	-14.37	158.60	-0.17	-1.09	-10.75	0	0
18.15	127.67	-31.10	18.45	-9.18	158.50	-0.27	-0.54	2.96	0	0
18.34	130.77	-28.01	16.64	-9.74	158.73	-0.04	1.21	9.43	0	0
18.52	133.56	-25.21	15.03	-8.61	158.73	-0.04	0.03	-6.38	0	0
18.71	136.08	-22.69	13.55	-7.99	158.79	0.02	0.31	1.56	0	0
18.89	138.35	-20.42	12.18	-7.34	158.70	-0.08	-0.51	-4.45	0	0
19.08	140.39	-18.38	10.99	-6.41	158.89	0.12	1.05	8.39	0	0
19.27	142.25	-16.52	9.97	-5.50	158.98	0.21	0.49	-3.02	0	0
19.46	143.92	-14.86	8.82	-6.07	158.86	0.09	-0.65	-6.01	0	0
19.64	145.41	-13.37	8.02	-4.29	158.82	0.05	-0.21	2.38	0	0
19.83	146.74	-12.03	7.02	-5.29	158.66	-0.11	-0.82	-3.24	0	0
20.02	147.94	-10.84	6.40	-3.32	158.75	-0.03	0.44	6.73	0	0
20.20	149.02	-9.76	5.80	-3.20	158.71	-0.06	-0.18	-3.29	0	0
20.39	149.98	-8.79	5.17	-3.39	158.65	-0.12	-0.35	-0.92	0	0
20.58	150.86	-7.91	4.68	-2.61	158.82	0.05	0.91	6.73	0	0
20.76	151.64	-7.13	4.22	-2.48	158.59	-0.19	-1.25	-11.64	0	0
20.95	152.35	-6.43	3.80	-2.24	158.77	-0.00	0.99	12.12	0	0
21.14	152.99	-5.78	3.40	-2.13	158.77	0.00	0.03	-5.10	0	0
21.32	153.57	-5.21	3.11	-1.56	158.77	-0.00	-0.02	-0.26	0	0
21.51	154.08	-4.69	2.78	-1.76	158.71	-0.06	-0.32	-1.62	0	0
21.70	154.55	-4.23	2.48	-1.60	158.70	-0.08	-0.07	1.34	0	0
21.88	154.96	-3.81	2.25	-1.26	158.76	-0.01	0.36	2.34	0	0
22.07	155.34	-3.43	2.01	-1.29	158.64	-0.13	-0.67	-5.52	0	0
22.25	155.67	-3.10	1.80	-1.15	158.72	-0.06	0.42	5.81	0	0
22.44	155.98	-2.79	1.66	-0.74	158.76	-0.01	0.26	-0.86	0	0
22.63	156.26	-2.51	1.49	-0.89	158.85	0.08	0.47	1.12	0	0
22.82	156.53	-2.25	1.42	-0.37	158.96	0.18	0.56	0.47	0	0
23.00	156.75	-2.02	1.23	-1.03	158.67	-0.10	-1.55	-11.30	0	0
23.19	156.95	-1.83	1.04	-1.03	158.70	-0.07	0.17	9.23	0	0
23.37	157.12	-1.65	0.93	-0.55	158.67	-0.10	-0.15	-1.69	0	0
23.56	157.29	-1.49	0.88	-0.29	158.85	0.08	0.94	5.84	0	0
23.75	157.44	-1.33	0.85	-0.15	158.89	0.12	0.25	-3.69	0	0
23.93	157.58	-1.19	0.75	-0.55	158.78	0.01	-0.60	-4.60	0	0
24.12	157.70	-1.07	0.65	-0.53	158.81	0.03	0.12	3.89	0	0
24.31	157.80	-0.97	0.53	-0.64	158.60	-0.17	-1.06	-6.27	0	0
24.49	157.90	-0.88	0.50	-0.18	158.85	0.08	1.32	12.81	0	0
24.68	157.99	-0.79	0.49	-0.05	158.76	-0.02	-0.50	-9.77	0	0
24.87	158.05	-0.72	0.33	-0.82	158.49	-0.29	-1.41	-4.78	0	0
25.06	158.06	-0.71	0.04	-1.55	157.78	-1.00	-3.82	-12.94	0	0
25.24	158.03	-0.74	-0.16	-1.09	157.74	-1.03	-0.17	19.65	0	0
25.42	158.01	-0.77	-0.12	0.21	157.87	-0.90	0.69	4.73	0	0
25.61	157.97	-0.81	-0.22	-0.53	157.32	-1.45	-2.94	-19.48	0	0
25.80	157.93	-0.85	-0.21	0.05	157.82	-0.95	2.70	30.29	0	0
25.98	157.90	-0.87	-0.12	0.50	157.59	-1.19	-1.25	-20.88	0	0
26.17	157.87	-0.90	-0.19	-0.38	157.53	-1.25	-0.32	5.04	0	0
26.35	157.84	-0.94	-0.17	0.09	157.57	-1.20	0.24	3.00	0	0
26.54	157.80	-0.97	-0.20	-0.13	157.37	-1.40	-1.08	-7.10	0	0
26.73	157.79	-0.99	-0.07	0.66	157.96	-0.82	3.15	22.74	0	0
26.91	157.79	-0.98	0.03	0.58	157.74	-1.03	-1.15	-23.10	0	0
27.10	157.79	-0.98	-0.01	-0.23	157.81	-0.96	0.38	8.19	0	0
27.28	157.79	-0.98	-0.02	-0.04	157.71	-1.06	-0.55	-4.98	0	0
27.48	157.78	-1.00	-0.06	-0.25	157.62	-1.15	-0.48	0.36	0	0
27.66	157.78	-0.99	0.02	0.43	157.99	-0.78	1.99	13.26	0	0
27.85	157.78	-0.99	-0.01	-0.12	157.54	-1.23	-2.42	-23.72	0	0
28.03	157.74	-1.03	-0.18	-0.94	157.34	-1.43	-1.07	7.30	0	0
28.22	157.74	-1.03	-0.00	0.97	158.14	-0.63	4.29	28.84	0	0
28.40	157.81	-0.97	0.33	1.77	158.57	-0.21	2.28	-10.81	0	0
28.59	157.89	-0.88	0.46	0.73	158.77	-0.00	1.09	-6.42	0	0
28.78	157.97	-0.80	0.41	-0.29	158.54	-0.24	-1.24	-12.52	0	0
28.96	158.05	-0.72	0.46	0.29	159.12	0.35	3.14	23.57	0	0
29.15	158.16	-0.61	0.56	0.52	159.11	0.33	-0.09	-17.08	0	0
29.34	158.26	-0.51	0.54	-0.13	159.21	0.44	0.56	3.45	0	0
29.52	158.35	-0.42	0.50	-0.20	159.17	0.40	-0.22	-4.19	0	0
29.70	158.44	-0.33	0.50	-0.01	159.33	0.55	0.88	6.13	0	0
29.89	158.54	-0.23	0.51	0.08	159.52	0.74	1.00	0.63	0	0
30.08	158.62	-0.15	0.44	-0.38	159.22	0.45	-1.60	-13.90	0	0
30.27	158.69	-0.08	0.37	-0.37	159.42	0.65	1.08	14.41	0	0
30.45	158.76	-0.01	0.37	-0.01	159.35	0.57	-0.39	-7.89	0	0
30.64	158.82	0.05	0.33	-0.22	159.41	0.63	0.32	3.82	0	0
30.83	158.88	0.10	0.29	-0.23	159.32	0.55	-0.44	-4.05	0	0
31.01	158.93	0.15	0.26	-0.13	159.40	0.63	0.43	4.72	0	0
31.19	158.99	0.21	0.33	0.38	159.65	0.87	1.34	5.05	0	0
31.38	159.04	0.26	0.28	-0.27	159.37	0.59	-1.49	-15.25	0	0
31.57	159.08	0.31	0.24	-0.22	159.60	0.83	1.24	14.69	0	0
31.75	159.13	0.36	0.25	0.06	159.50	0.72	-0.55	-9.64	0	0
31.94	159.19	0.41	0.32	0.36	159.94	1.16	2.38	15.75	0	0
32.12	159.24	0.47	0.29	-0.15	159.48	0.71	-2.55	-27.36	0	0
32.30	159.28	0.50	0.20	-0.47	159.75	0.98	1.48	21.67	0	0
32.49	159.31	0.54	0.20	-0.04	159.54	0.77	-1.14	-13.88	0	0
32.68	159.32	0.55	0.05	-0.77	159.28	0.51	-1.37	-1.21	0	0
32.87	159.34	0.56	0.06	0.06	159.60	0.83	1.70	16.50	0	0
33.05	159.35	0.57	0.05	-0.05	159.27	0.50	-1.78	-18.73	0	0
33.24	159.35	0.58	0.03	-0.12	159.54	0.77	1.45	17.38	0	0
33.42	159.37	0.60	0.09	0.33	159.51	0.74	-0.15	-8.60	0	0
33.61	159.38	0.61	0.07	-0.13	159.49	0.71	-0.15	-0.01	0	0
33.80	159.38	0.61	0.00	-0.36	159.29	0.52	-1.05	-4.83	0	0
33.98	159.37	0.60	-0.07	-0.42	159.20	0.42	-0.51	2.91	0	0
34.17	159.37	0.59	-0.02	0.31	159.48	0.71	1.50	10.61	0	0
34.36	159.36	0.59	-0.01	0.01	159.20	0.43	-1.49	-16.01	0	0
34.54	159.35	0.58	-0.08	-0.36	159.22	0.45	0.12	8.69	0	0
34.73	159.34	0.57	-0.05	0.16	159.28	0.50	0.27	0.78	0	0
34.92	159.33	0.56	-0.03	0.09	159.27	0.50	-0.02	-1.57	0	0
35.10	159.34	0.56	0.02	0.30	159.47	0.69	1.05	5.78	0	0
35.29	159.34	0.57	0.05	0.15	159.38	0.61	-0.44	-8.02	0	0
35.48	159.34	0.57	-0.01	-0.33	159.26	0.48	-0.69	-1.34	0	0
35.67	159.35	0.58	0.05	0.34	159.63	0.85	1.95	13.91	0	0
35.85	159.37	0.60	0.09	0.22	159.42	0.65	-1.09	-16.33	0	0
36.04	159.38	0.61	0.07	-0.11	159.58	0.81	0.85	10.42	0	0
36.23	159.39	0.62	0.04	-0.16	159.34	0.57	-1.31	-11.62	0	0
36.41	159.38	0.61	-0.06	-0.53	159.23	0.46	-0.57	3.97	0	0
36.60	159.36	0.59	-0.09	-0.16	159.20	0.43	-0.16	2.22	0	0
36.78	159.33	0.56	-0.16	-0.42	158.91	0.14	-1.57	-7.60	0	0
36.97	159.30	0.53	-0.16	-0.00	159.14	0.37	1.23	15.04	0	0
37.16	159.29	0.52	-0.05	0.64	159.30	0.52	0.83	-2.12	0	0
37.34	159.30	0.52	0.01	0.31	159.34	0.57	0.25	-3.06	0	0
37.53	159.31	0.53	0.05	0.17	159.42	0.65	0.41	0.85	0	0
37.72	159.30	0.53	-0.02	-0.36	159.11	0.34	-1.67	-11.21	0	0
37.90	159.30	0.52	-0.03	-0.05	159.38	0.61	1.44	16.73	0	0
38.09	159.30	0.53	0.01	0.21	159.25	0.47	-0.70	-11.52	0	0
38.27	159.30	0.53	0.01	-0.01	159.38	0.60	0.69	7.49	0	0
38.45	159.30	0.53	0.00	-0.03	159.23	0.46	-0.80	-8.27	0	0
38.63	159.31	0.54	0.08	0.42	159.65	0.88	2.32	17.35	0	0
38.82	159.34	0.56	0.12	0.25	159.44	0.67	-1.12	-18.54	0	0
39.01	159.36	0.59	0.12	-0.01	159.70	0.93	1.36	13.16	0	0
39.20	159.38	0.61	0.11	-0.09	159.42	0.65	-1.51	-15.42	0	0
39.38	159.39	0.61	0.03	-0.43	159.44	0.67	0.12	8.74	0	0
39.57	159.40	0.63	0.07	0.23	159.59	0.82	0.80	3.67	0	0
39.76	159.41	0.63	0.05	-0.12	159.39	0.61	-1.07	-9.79	0	0
39.94	159.40	0.63	-0.01	-0.33	159.38	0.60	-0.06	5.41	0	0
40.12	159.38	0.61	-0.13	-0.66	158.96	0.18	-2.32	-12.57	0	0
40.31	159.35	0.57	-0.19	-0.29	159.11	0.34	0.82	16.93	0	0
40.50	159.30	0.53	-0.24	-0.28	158.69	-0.08	-2.23	-16.43	0	0
40.68	159.24	0.47	-0.30	-0.35	158.76	-0.01	0.36	13.82	0	0
40.87	159.19	0.42	-0.27	0.19	158.72	-0.05	-0.22	-3.12	0	0
41.06	159.14	0.37	-0.31	-0.19	158.54	-0.24	-1.01	-4.28	0	0
41.24	159.09	0.32	-0.24	0.32	158.83	0.06	1.57	13.84	0	0
41.43	159.05	0.27	-0.24	0.02	158.46	-0.31	-1.96	-18.97	0	0
41.61	159.01	0.24	-0.20	0.21	158.88	0.11	2.25	22.64	0	0
41.80	158.99	0.22	-0.12	0.46	158.71	-0.07	-0.94	-17.17	0	0
41.98	158.94	0.17	-0.27	-0.83	158.27	-0.50	-2.33	-7.49	0	0
42.17	158.87	0.09	-0.39	-0.66	158.14	-0.63	-0.71	8.73	0	0
42.36	158.79	0.02	-0.41	-0.09	158.04	-0.73	-0.54	0.89	0	0
42.55	158.73	-0.04	-0.30	0.58	158.41	-0.36	2.00	13.67	0	0
42.73	158.70	-0.08	-0.20	0.55	158.32	-0.46	-0.53	-14.00	0	0
42.91	158.67	-0.11	-0.16	0.22	158.48	-0.29	0.93	8.12	0	0
43.09	158.63	-0.14	-0.17	-0.02	158.23	-0.54	-1.38	-12.43	0	0
43.28	158.62	-0.16	-0.10	0.33	158.65	-0.12	2.26	19.50	0	0
43.47	158.60	-0.17	-0.09	0.07	158.24	-0.54	-2.23	-24.16	0	0
43.65	158.58	-0.19	-0.11	-0.07	158.57	-0.20	1.79	21.58	0	0
43.84	158.57	-0.20	-0.05	0.29	158.40	-0.37	-0.89	-14.26	0	0
44.03	158.54	-0.23	-0.14	-0.49	158.21	-0.56	-1.00	-0.59	0	0
44.21	158.53	-0.24	-0.06	0.42	158.64	-0.14	2.27	17.58	0	0
44.40	158.54	-0.23	0.05	0.60	158.60	-0.17	-0.17	-13.08	0	0
44.58	158.55	-0.22	0.05	0.03	158.68	-0.10	0.39	2.99	0	0
44.77	158.59	-0.18	0.20	0.75	159.18	0.40	2.61	11.60	0	0
44.96	158.64	-0.13	0.28	0.47	159.07	0.30	-0.56	-16.82	0	0
45.15	158.68	-0.10	0.19	-0.51	158.92	0.14	-0.83	-1.49	0	0
45.33	158.70	-0.07	0.15	-0.23	158.98	0.21	0.37	6.46	0	0
45.52	158.74	-0.04	0.17	0.11	159.05	0.28	0.37	0.03	0	0
45.71	158.78	0.01	0.23	0.32	159.27	0.50	1.15	4.16	0	0
45.90	158.81	0.04	0.19	-0.18	159.01	0.24	-1.41	-13.75	0	0
46.08	158.83	0.05	0.07	-0.66	158.89	0.11	-0.65	4.04	0	0
46.27	158.84	0.07	0.06	-0.09	158.97	0.20	0.47	6.03	0	0
46.45	158.86	0.09	0.13	0.41	159.19	0.42	1.17	3.76	0	0
46.64	158.88	0.11	0.09	-0.23	158.87	0.09	-1.75	-15.69	0	0
46.83	158.88	0.11	-0.01	-0.51	158.87	0.10	0.04	9.62	0	0
47.01	158.89	0.12	0.07	0.40	159.14	0.37	1.44	7.52	0	0
47.20	158.91	0.14	0.09	0.11	158.98	0.21	-0.86	-12.16	0	0
47.39	158.92	0.14	0.04	-0.25	159.00	0.22	0.10	5.14	0	0
47.57	158.91	0.14	-0.02	-0.33	158.76	-0.01	-1.25	-7.21	0	0
47.76	158.90	0.13	-0.06	-0.22	158.83	0.06	0.37	8.70	0	0
47.94	158.90	0.13	0.02	0.47	159.05	0.28	1.20	4.63	0	0
48.12	158.93	0.16	0.14	0.62	159.27	0.50	1.18	-0.13	0	0
48.31	158.96	0.19	0.17	0.20	159.24	0.47	-0.17	-7.24	0	0
48.50	158.97	0.20	0.05	-0.67	158.87	0.10	-1.98	-9.74	0	0
48.68	158.97	0.20	-0.01	-0.30	159.05	0.28	0.96	15.77	0	0
48.87	158.96	0.19	-0.05	-0.21	158.72	-0.06	-1.76	-14.27	0	0
49.06	158.94	0.17	-0.09	-0.24	158.87	0.10	0.82	13.85	0	0
49.24	158.97	0.20	0.15	1.29	159.56	0.79	3.76	15.91	0	0
49.43	159.01	0.24	0.19	0.25	159.10	0.33	-2.50	-33.68	0	0
49.61	159.02	0.25	0.06	-0.70	159.15	0.38	0.29	15.10	0	0
49.80	159.02	0.24	-0.01	-0.40	158.84	0.07	-1.66	-10.42	0	0
49.99	159.02	0.25	0.04	0.25	159.32	0.55	2.60	22.98	0	0
50.17	159.04	0.27	0.09	0.28	159.05	0.28	-1.46	-21.80	0	0
50.36	159.06	0.29	0.12	0.15	159.46	0.68	2.18	19.55	0	0
50.54	159.11	0.33	0.24	0.68	159.54	0.77	0.46	-9.41	0	0
50.73	159.17	0.40	0.36	0.68	160.03	1.25	2.61	11.57	0	0
50.91	159.29	0.52	0.62	1.38	160.63	1.86	3.25	3.43	0	0
51.10	159.42	0.65	0.70	0.44	160.56	1.79	-0.37	-19.47	0	0
51.28	159.58	0.81	0.87	0.88	161.50	2.73	5.05	29.15	0	0
51.47	159.77	1.00	1.04	0.92	161.52	2.74	0.09	-26.66	0	0
51.66	159.99	1.22	1.17	0.70	162.37	3.60	4.59	24.22	0	0
51.84	160.25	1.47	1.38	1.13	162.73	3.96	1.93	-14.32	0	0
52.03	160.51	1.74	1.44	0.35	163.13	4.35	2.14	1.14	0	0
52.22	160.82	2.05	1.62	0.97	164.04	5.27	4.84	14.27	0	0
52.40	161.16	2.38	1.80	0.95	164.30	5.53	1.40	-18.47	0	0
52.59	161.51	2.73	1.89	0.46	165.03	6.26	3.92	13.51	0	0
52.78	161.87	3.10	1.96	0.41	165.29	6.52	1.38	-13.64	0	0
52.96	162.24	3.47	1.97	0.06	165.80	7.03	2.77	7.47	0	0
53.15	162.62	3.85	2.07	0.54	166.35	7.58	2.96	1.04	0	0
53.33	163.03	4.26	2.17	0.52	166.97	8.20	3.35	2.07	0	0
53.52	163.45	4.68	2.27	0.54	167.54	8.76	3.02	-1.76	0	0
53.71	163.87	5.10	2.28	0.05	167.85	9.08	1.70	-7.10	0	0
53.89	164.31	5.54	2.31	0.17	168.60	9.83	3.97	12.09	0	0
54.08	164.74	5.97	2.33	0.10	168.70	9.93	0.54	-18.45	0	0
54.27	165.17	6.40	2.31	-0.12	169.38	10.61	3.68	16.85	0	0
54.45	165.64	6.86	2.48	0.91	170.19	11.42	4.33	3.53	0	0
54.64	166.11	7.34	2.51	0.13	170.60	11.83	2.17	-11.40	0	0
54.83	166.59	7.82	2.57	0.33	171.17	12.40	3.06	4.83	0	0
55.01	167.07	8.30	2.59	0.12	171.64	12.86	2.50	-3.03	0	0
55.20	167.57	8.80	2.70	0.58	172.53	13.76	4.82	12.44	0	0
55.38	168.10	9.33	2.88	1.00	173.27	14.49	3.97	-4.57	0	0
55.57	168.62	9.85	2.74	-0.76	173.34	14.56	0.37	-18.95	0	0
55.76	169.13	10.36	2.72	-0.10	174.02	15.25	3.66	17.69	0	0
55.95	169.63	10.85	2.66	-0.28	174.15	15.38	0.71	-15.84	0	0
56.13	170.10	11.33	2.64	-0.13	174.61	15.83	2.54	10.12	0	0
56.31	170.57	11.80	2.53	-0.58	175.01	16.24	2.19	-1.87	0	0
56.50	171.04	12.26	2.50	-0.18	175.43	16.65	2.21	0.13	0	0
56.68	171.52	12.74	2.57	0.40	176.22	17.45	4.27	11.06	0	0
56.87	171.98	13.21	2.49	-0.44	176.08	17.31	-0.76	-27.05	0	0
57.06	172.43	13.66	2.42	-0.41	176.87	18.09	4.23	26.85	0	0
57.24	172.87	14.10	2.44	0.12	176.92	18.14	0.27	-21.64	0	0
57.42	173.30	14.52	2.28	-0.88	177.30	18.52	2.04	9.50	0	0
57.61	173.71	14.94	2.22	-0.28	177.57	18.80	1.47	-3.08	0	0
57.80	174.11	15.34	2.15	-0.37	177.91	19.13	1.80	1.76	0	0
57.98	174.50	15.73	2.10	-0.31	178.12	19.35	1.15	-3.47	0	0
58.17	174.88	16.11	2.02	-0.40	178.41	19.64	1.57	2.24	0	0
58.35	175.27	16.49	2.10	0.40	179.10	20.33	3.73	11.70	0	0
58.54	175.65	16.88	2.05	-0.23	179.07	20.30	-0.17	-21.01	0	0
58.73	176.03	17.25	2.02	-0.18	179.74	20.97	3.62	20.40	0	0
58.92	176.40	17.62	1.96	-0.34	179.74	20.96	-0.03	-19.21	0	0
59.10	176.75	17.97	1.89	-0.37	180.04	21.27	1.64	9.01	0	0
59.29	177.10	18.32	1.88	-0.06	180.47	21.70	2.29	3.50	0	0
59.48	177.45	18.68	1.90	0.12	180.79	22.02	1.72	-3.06	0	0
59.67	177.83	19.05	1.98	0.41	181.62	22.85	4.38	13.97	0	0
59.85	178.22	19.45	2.10	0.68	181.90	23.12	1.48	-15.49	0	0
60.04	178.59	19.82	2.00	-0.56	181.98	23.20	0.43	-5.66	0	0
60.22	178.95	20.18	1.94	-0.34	182.36	23.59	2.10	9.03	0	0
60.41	179.29	20.52	1.82	-0.63	182.40	23.62	0.17	-10.21	0	0
60.60	179.64	20.86	1.86	0.22	183.10	24.32	3.76	19.31	0	0
60.78	180.00	21.23	1.95	0.52	183.45	24.67	1.89	-10.05	0	0
60.97	180.35	21.58	1.89	-0.34	183.59	24.82	0.77	-6.02	0	0
61.16	180.71	21.94	1.91	0.10	184.22	25.45	3.39	14.10	0	0
61.34	181.06	22.29	1.90	-0.04	184.28	25.50	0.30	-16.66	0	0
61.53	181.42	22.65	1.93	0.13	185.02	26.25	3.99	19.86	0	0
61.71	181.78	23.01	1.95	0.10	185.06	26.29	0.23	-20.20	0	0
61.90	182.13	23.36	1.88	-0.36	185.49	26.72	2.31	11.17	0	0
62.09	182.48	23.70	1.80	-0.39	185.66	26.89	0.89	-7.42	0	0
62.28	182.80	24.03	1.75	-0.29	185.80	27.03	0.74	-0.84	0	0
62.46	183.12	24.35	1.70	-0.26	186.13	27.36	1.78	5.61	0	0
62.65	183.43	24.66	1.68	-0.13	186.34	27.57	1.15	-3.36	0	0
62.84	183.76	24.99	1.77	0.48	187.09	28.32	4.00	15.28	0	0
63.02	184.11	25.34	1.88	0.59	187.41	28.63	1.72	-12.25	0	0
63.21	184.45	25.68	1.84	-0.20	187.65	28.87	1.29	-2.31	0	0
63.39	184.79	26.02	1.83	-0.02	188.08	29.31	2.32	5.54	0	0
63.58	185.12	26.35	1.78	-0.28	188.13	29.36	0.30	-10.85	0	0
63.77	185.47	26.70	1.85	0.34	189.09	30.32	5.05	25.15	0	0
63.95	185.83	27.06	1.94	0.52	189.08	30.31	-0.05	-27.42	0	0
64.14	186.17	27.40	1.80	-0.75	189.29	30.52	1.13	6.31	0	0
64.33	186.50	27.73	1.80	-0.02	189.74	30.97	2.41	6.92	0	0
64.52	186.84	28.07	1.77	-0.16	189.99	31.22	1.32	-5.75	0	0
64.70	187.19	28.42	1.87	0.56	190.69	31.92	3.76	13.05	0	0
64.89	187.55	28.77	1.92	0.24	190.82	32.04	0.66	-16.66	0	0
65.08	187.89	29.12	1.84	-0.42	191.15	32.38	1.79	6.02	0	0
65.27	188.23	29.46	1.79	-0.25	191.43	32.66	1.48	-1.62	0	0
65.45	188.55	29.78	1.74	-0.30	191.48	32.71	0.27	-6.50	0	0
65.64	188.87	30.09	1.70	-0.18	191.92	33.15	2.35	11.24	0	0
65.82	189.19	30.42	1.79	0.52	192.28	33.50	1.99	-1.98	0	0
66.00	189.50	30.72	1.64	-0.83	192.20	33.43	-0.40	-12.90	0	0
66.19	189.76	30.99	1.44	-1.05	192.16	33.39	-0.21	1.04	0	0
66.37	190.01	31.23	1.31	-0.73	192.24	33.46	0.40	3.27	0	0
66.56	190.23	31.46	1.23	-0.44	192.32	33.55	0.45	0.30	0	0
66.75	190.44	31.66	1.08	-0.79	192.17	33.39	-0.82	-6.84	0	0
66.94	190.62	31.85	0.97	-0.58	192.49	33.72	1.66	12.64	0	0
67.13	190.80	32.03	0.92	-0.23	192.23	33.46	-1.39	-16.21	0	0
67.32	190.94	32.16	0.73	-1.04	192.10	33.33	-0.68	3.78	0	0
67.51	191.07	32.29	0.70	-0.15	192.40	33.63	1.59	12.08	0	0
67.69	191.20	32.42	0.69	-0.05	192.32	33.55	-0.45	-10.90	0	0
67.88	191.30	32.53	0.58	-0.60	192.25	33.48	-0.36	0.45	0	0
68.07	191.42	32.65	0.62	0.20	192.68	33.91	2.28	14.07	0	0
68.26	191.53	32.76	0.61	-0.06	192.44	33.67	-1.28	-18.94	0	0
68.44	191.62	32.85	0.48	-0.67	192.43	33.66	-0.03	6.62	0	0
68.64	191.70	32.93	0.42	-0.30	192.42	33.65	-0.06	-0.17	0	0
68.82	191.78	33.01	0.40	-0.13	192.49	33.72	0.37	2.30	0	0
69.01	191.85	33.08	0.36	-0.19	192.43	33.65	-0.34	-3.77	0	0
69.20	191.91	33.14	0.34	-0.11	192.55	33.78	0.65	5.26	0	0
69.39	191.96	33.19	0.26	-0.40	192.29	33.52	-1.35	-10.35	0	0
69.58	191.99	33.22	0.16	-0.52	192.26	33.48	-0.17	6.21	0	0
69.77	192.03	33.26	0.21	0.24	192.51	33.74	1.37	8.21	0	0
69.96	192.06	33.29	0.15	-0.32	192.11	33.34	-2.14	-18.70	0	0
70.15	192.07	33.30	0.06	-0.47	192.24	33.46	0.66	14.74	0	0
70.34	192.10	33.33	0.17	0.59	192.56	33.78	1.70	5.49	0	0
70.52	192.13	33.36	0.15	-0.11	192.22	33.44	-1.83	-18.84	0	0
70.71	192.16	33.38	0.13	-0.11	192.54	33.77	1.72	18.87	0	0
70.90	192.18	33.41	0.14	0.06	192.31	33.54	-1.22	-15.61	0	0
71.09	192.17	33.40	-0.06	-1.08	191.83	33.05	-2.57	-7.22	0	0
71.28	192.14	33.37	-0.17	-0.59	191.87	33.10	0.23	14.91	0	0
71.46	192.11	33.33	-0.18	-0.03	191.74	32.96	-0.70	-4.95	0	0
71.65	192.08	33.31	-0.14	0.23	191.96	33.19	1.19	10.00	0	0
71.84	192.08	33.31	0.01	0.74	192.22	33.45	1.35	0.83	0	0
72.03	192.10	33.32	0.08	0.39	192.24	33.47	0.12	-6.53	0	0
72.22	192.09	33.32	-0.04	-0.62	191.81	33.04	-2.28	-12.73	0	0
72.41	192.09	33.32	0.01	0.26	192.41	33.64	3.19	29.09	0	0
72.60	192.11	33.34	0.10	0.46	192.15	33.37	-1.41	-24.36	0	0
72.78	192.11	33.34	0.02	-0.44	192.14	33.36	-0.06	7.19	0	0
72.97	192.12	33.34	0.02	0.02	192.17	33.39	0.15	1.10	0	0
73.16	192.11	33.34	-0.04	-0.29	191.94	33.16	-1.22	-7.27	0	0
73.35	192.11	33.33	-0.03	0.04	192.18	33.41	1.29	13.35	0	0
73.54	192.12	33.34	0.06	0.48	192.27	33.50	0.48	-4.24	0	0
73.72	192.12	33.35	0.01	-0.26	192.02	33.24	-1.40	-10.36	0	0
73.91	192.13	33.35	0.03	0.05	192.32	33.55	1.60	15.97	0	0
74.10	192.13	33.36	0.03	0.03	192.05	33.28	-1.43	-16.13	0	0
74.29	192.13	33.35	-0.02	-0.29	192.12	33.35	0.38	9.42	0	0
74.48	192.13	33.36	0.03	0.29	192.25	33.47	0.66	1.51	0	0
74.66	192.13	33.36	0.01	-0.11	192.05	33.28	-1.07	-9.53	0	0
74.85	192.15	33.37	0.06	0.28	192.45	33.68	2.13	17.01	0	0
75.04	192.17	33.40	0.15	0.44	192.40	33.63	-0.28	-12.61	0	0
75.23	192.18	33.41	0.03	-0.60	192.08	33.30	-1.72	-7.63	0	0
75.42	192.16	33.39	-0.11	-0.77	191.86	33.09	-1.13	3.14	0	0
75.60	192.14	33.37	-0.09	0.11	192.11	33.34	1.33	13.05	0	0
75.79	192.14	33.37	-0.02	0.37	192.09	33.32	-0.12	-7.72	0	0
75.98	192.13	33.35	-0.06	-0.22	191.95	33.18	-0.74	-3.28	0	0
76.17	192.11	33.34	-0.06	0.01	192.07	33.30	0.66	7.44	0	0
76.36	192.10	33.33	-0.07	-0.03	191.91	33.14	-0.88	-8.16	0	0
76.54	192.08	33.31	-0.11	-0.22	191.89	33.12	-0.09	4.17	0	0
76.74	192.06	33.28	-0.14	-0.18	191.74	32.96	-0.83	-3.84	0	0
76.92	192.03	33.26	-0.14	-0.02	191.83	33.06	0.53	7.19	0	0
77.11	191.99	33.22	-0.20	-0.29	191.48	32.70	-1.91	-12.94	0	0
77.30	191.95	33.18	-0.23	-0.15	191.65	32.88	0.94	15.14	0	0
77.49	191.92	33.15	-0.13	0.52	191.76	32.99	0.57	-1.96	0	0
77.68	191.91	33.14	-0.08	0.24	191.78	33.01	0.10	-2.48	0	0
77.86	191.90	33.13	-0.03	0.30	191.94	33.17	0.85	3.97	0	0
78.05	191.92	33.15	0.10	0.66	192.24	33.46	1.58	3.87	0	0
78.24	191.94	33.17	0.09	-0.02	191.96	33.19	-1.43	-15.86	0	0
78.43	191.93	33.16	-0.03	-0.68	191.79	33.01	-0.95	2.57	0	0
78.62	191.92	33.14	-0.09	-0.32	191.72	32.95	-0.33	3.32	0	0
78.81	191.91	33.14	-0.04	0.31	191.97	33.20	1.31	8.69	0	0
79.00	191.91	33.14	-0.01	0.16	191.83	33.05	-0.77	-11.06	0	0
79.18	191.91	33.14	0.00	0.03	191.99	33.22	0.89	8.83	0	0
